wavelength	response
14440.0	0.0
14450.0	7.227e-05
14460.0	0.00031
14470.0	0.00141065
14480.0	0.0027300000000000002
14490.0	0.0037192199999999996
14500.0	0.00439368
14510.0	0.00491
14520.0	0.005433240000000001
14530.0	0.006161130000000001
14540.0	0.0073
14550.0	0.00906659
14560.0	0.01172
14570.0	0.0153636
14580.0	0.0194305
14590.0	0.023331400000000002
14600.0	0.0270592
14610.0	0.030750000000000003
14620.0	0.034690500000000006
14630.0	0.039761000000000005
14640.0	0.04699
14650.0	0.0571156
14660.0	0.0697
14670.0	0.0838228
14680.0	0.09778
14690.0	0.11014
14700.0	0.12134299999999999
14710.0	0.13229
14720.0	0.144024
14730.0	0.158123
14740.0	0.17629999999999998
14750.0	0.19984300000000002
14760.0	0.22829999999999998
14770.0	0.26025200000000004
14780.0	0.29208
14790.000000000002	0.320253
14800.0	0.343804
14810.000000000002	0.362392
14820.0	0.37690199999999996
14830.000000000002	0.393114
14840.0	0.41802
14850.000000000002	0.456239
14860.0	0.5028360000000001
14870.000000000002	0.550551
14880.0	0.5924
14890.000000000002	0.623351
14900.0	0.646034
14910.000000000002	0.66498
14920.0	0.684199
14930.000000000002	0.705623
14940.0	0.73065
14950.000000000002	0.759752
14960.0	0.7896299999999999
14970.000000000002	0.816087
14980.0	0.8351000000000001
14990.000000000002	0.8441270000000001
15000.0	0.8464499999999999
15009.999999999998	0.8468000000000001
15020.0	0.8488880000000001
15029.999999999998	0.8523350000000001
15040.0	0.85574
15049.999999999998	0.857929
15060.0	0.85863
15069.999999999998	0.8579479999999999
15080.0	0.85658
15089.999999999998	0.8552249999999999
15100.0	0.853992
15109.999999999998	0.85284
15120.0	0.851753
15129.999999999998	0.850809
15140.0	0.8501099999999999
15149.999999999998	0.8498439999999999
15160.0	0.8505400000000001
15169.999999999998	0.852543
15180.0	0.8551099999999999
15189.999999999998	0.8575100000000001
15200.0	0.860137
15209.999999999998	0.86367
15220.0	0.868379
15230.0	0.87292
15240.0	0.875984
15250.0	0.878033
15260.0	0.87997
15270.0	0.882395
15280.0	0.88469
15290.0	0.886141
15300.0	0.886875
15310.0	0.88723
15320.0	0.887474
15330.0	0.8876000000000001
15340.0	0.8875029999999999
15350.0	0.886978
15360.0	0.88579
15370.0	0.883866
15380.0	0.88177
15390.0	0.88002
15400.0	0.878325
15410.0	0.87619
15420.0	0.873373
15430.0	0.87063
15440.0	0.8687220000000001
15450.0	0.8674240000000001
15460.0	0.86626
15470.0	0.864916
15480.0	0.86371
15490.0	0.86303
15500.0	0.862913
15510.0	0.86331
15520.0	0.8641249999999999
15530.0	0.86508
15540.0	0.8659680000000001
15550.0	0.867051
15560.0	0.86871
15570.0	0.871109
15580.0	0.87355
15590.0	0.875387
15600.0	0.87705
15610.0	0.8792400000000001
15620.0	0.882361
15630.0	0.88564
15640.0	0.888236
15650.0	0.8902140000000001
15660.0	0.8918699999999999
15670.0	0.893451
15680.0	0.8950239999999999
15690.0	0.89661
15700.0	0.898177
15710.0	0.89949
15720.0	0.900321
15730.0	0.90068
15740.0	0.900641
15750.0	0.9002840000000001
15760.0	0.89969
15770.0	0.89889
15780.0	0.897719
15790.0	0.8959600000000001
15800.0	0.8935190000000001
15810.0	0.89079
15820.0	0.888237
15830.0	0.88612
15840.0	0.884576
15850.0	0.883476
15860.0	0.8826200000000001
15870.0	0.8818389999999999
15880.0	0.8810800000000001
15890.0	0.88032
15900.0	0.8795480000000001
15910.0	0.87881
15920.0	0.8781730000000001
15930.0	0.87773
15940.0	0.877555
15950.0	0.8776170000000001
15960.0	0.8778600000000001
15970.0	0.878265
15980.0	0.8789579999999999
15990.0	0.8801000000000001
16000.0	0.881789
16010.0	0.88387
16020.0	0.886108
16030.0	0.8882099999999999
16040.000000000002	0.8899429999999999
16050.0	0.891386
16060.000000000002	0.8926900000000001
16070.0	0.8939950000000001
16080.000000000002	0.8953749999999999
16090.0	0.89689
16100.000000000002	0.898514
16110.0	0.89988
16120.000000000002	0.900652
16130.0	0.9009600000000001
16140.000000000002	0.901026
16150.0	0.900983
16160.000000000002	0.90094
16170.0	0.90095
16180.000000000002	0.9008440000000001
16190.0	0.9004000000000001
16200.000000000002	0.899325
16210.0	0.8970600000000001
16220.000000000002	0.893339
16230.0	0.8893500000000001
16240.000000000002	0.886237
16250.0	0.8835200000000001
16259.999999999998	0.88031
16270.0	0.876112
16279.999999999998	0.87199
16290.0	0.8689490000000001
16299.999999999998	0.866194
16310.0	0.86248
16319.999999999998	0.857109
16330.0	0.8515699999999999
16339.999999999998	0.847466
16350.0	0.844651
16359.999999999998	0.8425400000000001
16370.0	0.840616
16379.999999999998	0.8386279999999999
16390.0	0.83639
16400.0	0.8338
16410.0	0.83108
16420.0	0.8285410000000001
16430.0	0.8265000000000001
16440.0	0.825192
16450.0	0.824505
16460.0	0.8242400000000001
16470.0	0.8242149999999999
16480.0	0.82431
16490.0	0.824472
16500.0	0.824864
16510.0	0.8257
16520.0	0.8270730000000001
16530.0	0.8285800000000001
16540.0	0.829884
16550.0	0.831407
16560.0	0.8337600000000001
16570.0	0.8372280000000001
16580.0	0.8407800000000001
16590.0	0.843434
16600.0	0.8456940000000001
16610.0	0.84844
16620.0	0.8521639999999999
16630.0	0.8558100000000001
16640.0	0.858321
16650.0	0.860183
16660.0	0.8622700000000001
16670.0	0.865127
16680.0	0.86799
16690.0	0.870042
16700.0	0.871552
16710.0	0.87306
16720.0	0.874896
16730.0	0.87654
16740.0	0.877442
16750.0	0.8777670000000001
16760.0	0.8778600000000001
16770.0	0.8779980000000001
16780.0	0.87818
16790.0	0.878343
16800.0	0.8784470000000001
16810.0	0.87846
16820.0	0.8783610000000001
16830.0	0.87818
16840.0	0.8779330000000001
16850.0	0.877522
16860.0	0.87682
16870.0	0.8757739999999999
16880.0	0.8746299999999999
16890.0	0.873641
16900.0	0.872798
16910.0	0.8720300000000001
16920.0	0.871267
16930.0	0.870462
16940.0	0.86957
16950.0	0.8686069999999999
16960.0	0.86782
16970.0	0.867439
16980.0	0.86741
16990.0	0.8676130000000001
17000.0	0.867962
17010.0	0.8683799999999999
17020.0	0.868788
17030.0	0.86911
17040.0	0.8692700000000001
17050.0	0.8692390000000001
17060.0	0.86917
17070.0	0.869232
17080.0	0.86946
17090.0	0.869842
17100.0	0.870314
17110.0	0.8708
17120.0	0.8712030000000001
17130.0	0.871348
17140.0	0.87104
17150.0	0.8701090000000001
17160.0	0.8684900000000001
17170.0	0.866237
17180.0	0.86378
17190.0	0.861532
17200.0	0.8594710000000001
17210.0	0.8574700000000001
17220.0	0.8553499999999999
17230.0	0.8527450000000001
17240.0	0.8492400000000001
17250.0	0.844585
17260.0	0.839199
17270.0	0.833686
17280.0	0.82872
17290.0	0.824819
17300.0	0.821784
17310.0	0.8192400000000001
17320.0	0.8168500000000001
17330.0	0.814428
17340.0	0.81183
17350.0	0.808985
17360.0	0.80613
17370.0	0.8035550000000001
17380.0	0.8014700000000001
17390.0	0.799999
17400.0	0.799015
17410.0	0.79833
17420.0	0.7977970000000001
17430.0	0.797444
17440.0	0.7973399999999999
17450.0	0.797573
17460.0	0.7983
17470.0	0.7995760000000001
17480.0	0.80098
17490.0	0.802178
17500.0	0.8036660000000001
17510.0	0.8061499999999999
17520.0	0.809965
17530.0	0.8139700000000001
17540.0	0.816981
17550.0	0.819121
17560.0	0.82084
17570.0	0.822426
17580.0	0.82353
17590.0	0.8237829999999999
17600.0	0.8233880000000001
17610.0	0.82269
17620.0	0.821906
17630.0	0.8207450000000001
17640.0	0.81879
17650.0	0.8155070000000001
17660.0	0.8098900000000001
17670.0	0.801046
17680.0	0.7889900000000001
17690.0	0.7745010000000001
17700.0	0.7605270000000001
17710.0	0.75055
17720.0	0.746215
17730.0	0.7417900000000001
17740.0	0.730718
17750.0	0.710533
17760.0	0.6797799999999999
17770.0	0.638571
17780.0	0.59325
17790.0	0.550373
17800.0	0.511192
17810.0	0.47561000000000003
17820.0	0.44306399999999996
17830.0	0.41106699999999996
17840.0	0.37664000000000003
17850.0	0.33758699999999997
17860.0	0.29476
17870.0	0.250736
17880.0	0.21186
17890.0	0.18333200000000002
17900.0	0.16206199999999998
17910.0	0.14288
17920.0	0.12233000000000001
17930.0	0.10384
17940.0	0.09103199999999999
17950.0	0.0814651
17960.0	0.07118000000000001
17970.0	0.057800500000000005
17980.0	0.0453
17990.0	0.0378186
18000.0	0.0338467
18010.0	0.030459999999999997
18020.0	0.025602700000000003
18030.0	0.0207
18040.0	0.0174809
18050.0	0.015423000000000001
18060.0	0.01344
18070.0	0.0108086
18080.0	0.00826
18090.0	0.0066118
18100.0	0.0055788800000000005
18110.0	0.0046
18120.0	0.00328378
18130.0	0.00192
18140.0	0.00085702
